Frequency (MHz)	Matching Parameter (linear)
30.0	0.06625111287101182
30.104444	0.06699694613201768
30.208888	0.06630230719732877
30.313333	0.06513519065314832
30.417777	0.06417786020126581
30.522222	0.06348186899957464
30.626666	0.06274589311583678
30.731111	0.062052054825231906
30.835555	0.06135776331093079
30.94	0.06058561210291402
31.044444	0.05997116339831676
31.148888	0.05929491554474353
31.253333	0.05901610277928404
31.357777	0.05846023837931602
31.462222	0.057933534728951463
31.566666	0.057607775746801315
31.671111	0.05716786411935548
31.775555	0.056734754887517
31.88	0.05661843969270053
31.984444	0.05640902166263728
32.088888	0.056145903271872855
32.193333	0.05592276631861781
32.297777	0.0557437871882962
32.402222	0.055784748780794424
32.506666	0.05572304779864967
32.611111	0.05578070100631416
32.715555	0.055847452274995546
32.82	0.056007758595667756
32.924444	0.056034379375566656
33.028888	0.056165860310313453
33.133333	0.056358980409004555
33.237777	0.056587714643373976
33.342222	0.05698163864344852
33.446666	0.05735003876319744
33.551111	0.057640221617558995
33.655555	0.05798488582659478
33.76	0.058554605322621356
33.864444	0.05909834784632517
33.968888	0.059594504547293425
34.073333	0.06019567171949225
34.177777	0.06080053689861076
34.282222	0.06144176065274298
34.386666	0.06234278316293784
34.491111	0.06302631478986143
34.595555	0.0638726823595901
34.7	0.06469223298241811
34.804444	0.06559832477840322
34.908888	0.06663390657445167
35.013333	0.06754588837634101
35.117777	0.06861820934559337
35.222222	0.06964012911806383
35.326666	0.07048693452404098
35.431111	0.07144777876971709
35.535555	0.07259395304036109
35.64	0.0735664013372308
35.744444	0.0747503257387776
35.848888	0.07572299582974495
35.953333	0.07678666127007217
36.057777	0.0780334985166069
36.162222	0.07919450364700387
36.266666	0.08037642137063528
36.371111	0.08148952743101134
36.475555	0.08256610940658315
36.58	0.08348229977128696
36.684444	0.08490011276633846
36.788888	0.08589016447908904
36.893333	0.08710336010137087
36.997777	0.08831896225997538
37.102222	0.08910963301811436
37.206666	0.09039788442199481
37.311111	0.09141620533542727
37.415555	0.09256566598272964
37.52	0.0934792379966739
37.624444	0.09458698938993637
37.728888	0.09559906892170078
37.833333	0.09672278751086749
37.937777	0.09756596910240178
38.042222	0.09859370120902755
38.146666	0.09965115088817567
38.251111	0.10045775551581271
38.355555	0.10149796136583134
38.46	0.10231396858234143
38.564444	0.10343016347731948
38.668888	0.10427185784378568
38.773333	0.10526245187872729
38.877777	0.10601592352887157
38.982222	0.10689394962469545
39.086666	0.10784652409025797
39.191111	0.10838709789803591
39.295555	0.10938092701691338
39.4	0.11017176792652883
39.504444	0.11074008301469673
39.608888	0.1115934815792714
39.713333	0.11235770247683274
39.817777	0.11290205700201095
39.922222	0.1136914507604827
40.026666	0.11433665624439648
40.131111	0.11487814071466618
40.235555	0.11562760082939172
40.34	0.11618936855744744
40.444444	0.11673043164889352
40.548888	0.11717254106292707
40.653333	0.11791071921167784
40.757777	0.11823085052165716
40.862222	0.11874651975466122
40.966666	0.11912454394728345
41.071111	0.11979158024614367
41.175555	0.12020059731199273
41.28	0.12053743726086752
41.384444	0.12070827979333032
41.488888	0.12105021359264201
41.593333	0.1215386950274635
41.697777	0.1219947339814843
41.802222	0.12245083558604575
41.906666	0.1223567870151484
42.011111	0.12280000283341896
42.115555	0.12288916701374575
42.22	0.12314989280646782
42.324444	0.12351416517583669
42.428888	0.1237341918414483
42.533333	0.12382731549033188
42.637777	0.12405357095585556
42.742222	0.12418871305276313
42.846666	0.12432760608123039
42.951111	0.12447101112916936
43.055555	0.12443335799080923
43.16	0.1247462777768531
43.264444	0.12478888308652136
43.368888	0.1248821569623173
43.473333	0.12476218455290111
43.577777	0.12491927234454048
43.682222	0.12506968699513632
43.786666	0.12524836272064188
43.891111	0.12514931026618137
43.995555	0.1252401091939006
44.1	0.1255352673491903
44.204444	0.125679169450442
44.308888	0.12552033469732216
44.413333	0.12572679730828595
44.517777	0.1262488112836887
44.622222	0.12611557195091316
44.726666	0.1264192017558331
44.831111	0.12681422271655873
44.935555	0.1271448420755823
45.04	0.12737390591761144
45.144444	0.12770843310173785
45.248888	0.12802889474521528
45.353333	0.12826753949772274
45.457777	0.12855735538996804
45.562222	0.12904263533646754
45.666666	0.12919541531461254
45.771111	0.1297815809186632
45.875555	0.13003103620338574
45.98	0.1306235501692834
46.084444	0.13095631320018875
46.188888	0.1316319797407003
46.293333	0.13227525582124233
46.397777	0.13299945006159908
46.502222	0.1336415978086164
46.606666	0.13447344930543215
46.711111	0.1351093976442529
46.815555	0.13584888062498468
46.92	0.13638034385762243
47.024444	0.13706271520647373
47.128888	0.13770829171582644
47.233333	0.13856776756560896
47.337777	0.13980248677570106
47.442222	0.1405653684329612
47.546666	0.1411501694521372
47.651111	0.14206785204405303
47.755555	0.1431202327266461
47.86	0.14392617537652574
47.964444	0.14483323244311153
48.068888	0.1457585835563564
48.173333	0.14674059016281105
48.277777	0.14775552952219684
48.382222	0.14880647620454834
48.486666	0.14965640385489187
48.591111	0.15047031885935602
48.695555	0.1517225211213289
48.8	0.15295050487724182
48.904444	0.15367494922657043
49.008888	0.15439851464135612
49.113333	0.155514120455864
49.217777	0.15652652434204306
49.322222	0.15760763651325171
49.426666	0.15847998682879483
49.531111	0.16107495467546584
49.635555	0.1613377664957698
49.74	0.1622564002430873
49.844444	0.16312686900042106
49.948888	0.16378625796743962
50.053333	0.16462057287402054
50.157777	0.16525420291111637
50.262222	0.16784472572369413
50.366666	0.16690367328862643
50.471111	0.16751975825817833
50.575555	0.16833722235432946
50.68	0.16908275155738017
50.784444	0.16992700754631473
50.888888	0.17067835241233087
50.993333	0.17140643560083146
51.097777	0.17209700729977462
51.202222	0.17278299044263934
51.306666	0.1736261214389837
51.411111	0.17444733480159735
51.515555	0.17500923855572825
51.62	0.17549806284504166
51.724444	0.17615623505959144
51.828888	0.17666343454625733
51.933333	0.1772617735980374
52.037777	0.1778449350547785
52.142222	0.17825376022884198
52.246666	0.17875527223414323
52.351111	0.1791598945038103
52.455555	0.17957653102193416
52.56	0.17994995277149772
52.664444	0.18031054459127538
52.768888	0.1805786283522608
52.873333	0.18108960417859332
52.977777	0.18129877178595688
53.082222	0.1817263515819617
53.186666	0.18198932556098124
53.291111	0.1821260473084959
53.395555	0.18236039962945028
53.5	0.18285269574603968
53.604444	0.1829271167976293
53.708888	0.18304760040759815
53.813333	0.18316831827023305
53.917777	0.18328771936039334
54.022222	0.1834595680370228
54.126666	0.1835338331406695
54.231111	0.18376778591655485
54.335555	0.18383365240958316
54.44	0.1837938920189639
54.544444	0.1837800214797609
54.648888	0.18384972241614916
54.753333	0.18385241202029112
54.857777	0.18398692644454018
54.962222	0.18386013009986646
55.066666	0.1839869316990561
55.171111	0.18399518717646957
55.275555	0.18406089608151777
55.38	0.18406397289948595
55.484444	0.18413999336442255
55.588888	0.18415478004737673
55.693333	0.1841823048700344
55.797777	0.18431682753571088
55.902222	0.18445513882611686
56.006666	0.1844372535778931
56.111111	0.18465766889706414
56.215555	0.18484018270904723
56.32	0.18539905379776767
56.424444	0.18533083331826472
56.528888	0.18565606964134518
56.633333	0.18603551787310868
56.737777	0.18635168392718304
56.842222	0.18677219640778042
56.946666	0.18737981879792076
57.051111	0.18790757972770478
57.155555	0.18849683618757807
57.26	0.18909163652027328
57.364444	0.1898677686475222
57.468888	0.19057427723117426
57.573333	0.19129187910073364
57.677777	0.19218896752022474
57.782222	0.19303053171655948
57.886666	0.1940040721252947
57.991111	0.1949370957468931
58.095555	0.19598781263665133
58.2	0.19708242386856656
58.304444	0.1981602414640916
58.408888	0.19924674324652603
58.513333	0.2006596497276225
58.617777	0.20181963932844538
58.722222	0.20323294504251466
58.826666	0.20451371305474464
58.931111	0.20612658891076385
59.035555	0.2074640169867895
59.14	0.2091275277323119
59.244444	0.2106577157550763
59.348888	0.21235569646974106
59.453333	0.2139553444941873
59.557777	0.21584889739357593
59.662222	0.21774462317689058
59.766666	0.21956732338874252
59.871111	0.22168889819801108
59.975555	0.2235756496932516
60.08	0.22582258760026752
60.184444	0.22801841021184266
60.288888	0.23026921044451776
60.393333	0.23240873349874502
60.497777	0.23474104228389947
60.602222	0.2372023735966462
60.706666	0.23972847835534283
60.811111	0.24224898939904982
60.915555	0.24476707757659466
61.02	0.2474203254776416
61.124444	0.2501371918557188
61.228888	0.25317197251357915
61.333333	0.25579970328378265
61.437777	0.2587927224141242
61.542222	0.2616228048459629
61.646666	0.2649023886508788
61.751111	0.26824474718871627
61.855555	0.27148097620239275
61.96	0.27475154077759867
62.064444	0.2781509433878009
62.168888	0.2816319873524874
62.273333	0.28514962314214876
62.377777	0.2887439448702188
62.482222	0.29260048570170905
62.586666	0.29637712969893315
62.691111	0.3002865989509482
62.795555	0.3043590468368981
62.9	0.3084968778546081
63.004444	0.3126800601483931
63.108888	0.31700550119374715
63.213333	0.32133783091270385
63.317777	0.3258470211759036
63.422222	0.33020287719506924
63.526666	0.3348420797972921
63.631111	0.33972128778331345
63.735555	0.344406721911488
63.84	0.3493620775173396
63.944444	0.3542970741288599
64.048888	0.35938356747855194
64.153333	0.36455464587921926
64.257777	0.3698315897962876
64.362222	0.3751003065794357
64.466666	0.3804649662376416
64.571111	0.38609947030956393
64.675555	0.39154340663459974
64.78	0.39725213710775475
64.884444	0.40291407223099684
64.988888	0.4087190700549318
65.093333	0.4145508818447087
65.197777	0.4204375948184189
65.302222	0.4263918201064484
65.406666	0.4324802532542258
65.511111	0.43853253194073893
65.615555	0.44475645956848286
65.72	0.4508400982245545
65.824444	0.4571391644070615
65.928888	0.4632449431233284
66.033333	0.4696648082272036
66.137777	0.475833129203587
66.242222	0.48205386444574727
66.346666	0.48830490224598144
66.451111	0.49448741481518443
66.555555	0.5007728131164346
66.66	0.5069171309977898
66.764444	0.5129256646456256
66.868888	0.5189990125493575
66.973333	0.5249264479243267
67.077777	0.5307791800003211
67.182222	0.5365706503164364
67.286666	0.5422260146820925
67.391111	0.5477005090548759
67.495555	0.553060208657107
67.6	0.5581848548276617
67.704444	0.5631764973411104
67.808888	0.5680987842385131
67.913333	0.5725951976854298
68.017777	0.5770384166427682
68.122222	0.5812715514991085
68.226666	0.5851280762874067
68.331111	0.5888542125990717
68.435555	0.5922604835505838
68.54	0.5955172177867494
68.644444	0.5984028435633507
68.748888	0.601037713285673
68.853333	0.603514905455488
68.957777	0.6055183369104011
69.062222	0.6072684156350738
69.166666	0.6088395974953202
69.271111	0.610086030997927
69.375555	0.6109742634966653
69.48	0.6116922943687373
69.584444	0.6119864634818273
69.688888	0.6121155113644579
69.793333	0.6119740857450792
69.897777	0.6114598919651532
70.002222	0.6106820620472335
70.106666	0.6098303506070419
70.211111	0.6085119310359294
70.315555	0.6071239130929462
70.42	0.6054162915724721
70.524444	0.6035008255965814
70.628888	0.6014128584952134
70.733333	0.5989632023294043
70.837777	0.5964310920178266
70.942222	0.5937279629466792
71.046666	0.5908848080707068
71.151111	0.5878560088731972
71.255555	0.5847680480743787
71.36	0.5813578711620979
71.464444	0.577942615938497
71.568888	0.5744192505798276
71.673333	0.5706439880352839
71.777777	0.566869347242157
71.882222	0.5630397654892756
71.986666	0.5591512601962071
72.091111	0.5551821094195017
72.195555	0.5510614194695141
72.3	0.5470617337915482
72.404444	0.542810168035022
72.508888	0.5386296435934681
72.613333	0.5344293604220015
72.717777	0.5302396059800027
72.822222	0.5260870728330238
72.926666	0.5219694105901657
73.031111	0.5178142734985886
73.135555	0.5137244091994946
73.24	0.5096542414798819
73.344444	0.5054762949626103
73.448888	0.5014676220188037
73.553333	0.4974944028784152
73.657777	0.4936120190153578
73.762222	0.48979163367118106
73.866666	0.48609746809221765
73.971111	0.4824390282873574
74.075555	0.4788528339063497
74.18	0.4754146045209674
74.284444	0.47215709873111644
74.388888	0.46886461346796826
74.493333	0.4657019002917394
74.597777	0.462870688600332
74.702222	0.4600254665887926
74.806666	0.45723346529318976
74.911111	0.45464496731277126
75.015555	0.45234169175672734
75.12	0.45009601850557723
75.224444	0.44805879673251103
75.328888	0.44625997080137014
75.433333	0.4445451351567571
75.537777	0.44314398043620307
75.642222	0.4419225767552014
75.746666	0.440886857909232
75.851111	0.4400955467053528
75.955555	0.4395933643661749
76.06	0.43938069798532
76.164444	0.43935465763708126
76.268888	0.4395520403810155
76.373333	0.44025417773076403
76.477777	0.44133330401675286
76.582222	0.4427087115378391
76.686666	0.4444782854650916
76.791111	0.4467413045512161
76.895555	0.44945292310094587
77.0	0.4526586092015582
77.104444	0.4563627767346913
77.208888	0.4605868790718579
77.313333	0.4654717025914634
77.417777	0.47094954471992
77.522222	0.4772890661570225
77.626666	0.4843430313205419
77.731111	0.4921027609839468
77.835555	0.500835321824717
77.94	0.5103692510356563
78.044444	0.520940171292473
78.148888	0.5324256393238457
78.253333	0.5450322824213394
78.357777	0.5586715320210113
78.462222	0.5732399013784321
78.566666	0.588953865414487
78.671111	0.6055226431231526
78.775555	0.622981080145858
78.88	0.6410902063620362
78.984444	0.659804656954601
79.088888	0.6787329828638433
79.193333	0.6977684263403399
79.297777	0.7164811890279936
79.402222	0.7346888903534594
79.506666	0.752226720884688
79.611111	0.7688139444420623
79.715555	0.7843807505831903
79.82	0.7988665567133275
79.924444	0.8124756607628363
80.028888	0.8253176543288396
80.133333	0.8372931553805575
80.237777	0.850053729052934
80.342222	0.8627159256170677
80.446666	0.8759115862695884
80.551111	0.8895613573260484
80.655555	0.9028978573990839
80.76	0.9142386014297583
80.864444	0.9209635434653765
80.968888	0.9206157481472692
81.073333	0.9115429125593786
81.177777	0.8915362605073389
81.282222	0.857698991791551
81.386666	0.8125504051697471
81.491111	0.7665937726532462
81.595555	0.7263861524239401
81.7	0.6920708670509692
81.804444	0.6621904622641668
81.908888	0.6357483071333074
82.013333	0.6119865006161049
82.117777	0.5905710200027496
82.222222	0.5711684742128417
82.326666	0.5536980438054774
82.431111	0.5378984742906006
82.535555	0.5236500765980596
82.64	0.5106471494986758
82.744444	0.49923739414275725
82.848888	0.4887608996868077
82.953333	0.4794745909168229
83.057777	0.47117917289223454
83.162222	0.4636929580426812
83.266666	0.45711222478531477
83.371111	0.45128255666599415
83.475555	0.4462677653370444
83.58	0.4419871176118816
83.684444	0.4384153341465141
83.788888	0.4355144446525675
83.893333	0.43319541266282524
83.997777	0.4317283940553559
84.102222	0.43085493434934596
84.206666	0.43058922771558716
84.311111	0.4309680979570685
84.415555	0.4321278704715532
84.52	0.4338953497147344
84.624444	0.436244459997741
84.728888	0.43946463196159635
84.833333	0.4434295665077985
84.937777	0.44808049411319417
85.042222	0.45353399114761417
85.146666	0.4597079765440283
85.251111	0.4667063685238342
85.355555	0.4745245501601534
85.46	0.48311696054260933
85.564444	0.49252959080234004
85.668888	0.5029746864979372
85.773333	0.5139531924264424
85.877777	0.5258219794812993
85.982222	0.538332256175989
86.086666	0.5515961442011311
86.191111	0.5655295210461929
86.295555	0.580005544052902
86.4	0.595191565120499
86.504444	0.6106399687368353
86.608888	0.6265939026786894
86.713333	0.6428883477187339
86.817777	0.6594433731802833
86.922222	0.6761872189836982
87.026666	0.6932453450407292
87.131111	0.7104410308792442
87.235555	0.7278058783455721
87.34	0.7451355524523953
87.444444	0.7627029889651505
87.548888	0.7801871343250317
87.653333	0.7977778826488765
87.757777	0.8151821929211024
87.862222	0.8322443428102839
87.966666	0.8488074041494825
88.071111	0.8646173456021082
88.175555	0.8793784892232299
88.28	0.8928982411851849
88.384444	0.9048845069395899
88.488888	0.9151328448222024
88.593333	0.9235667898845491
88.697777	0.9299801390872765
88.802222	0.9343269413580415
88.906666	0.9365254734819617
89.011111	0.9362883839770428
89.115555	0.9333428941148862
89.22	0.927252578813339
89.324444	0.9174327556130747
89.428888	0.9032781483024457
89.533333	0.8842464999774101
89.637777	0.8601654898725756
89.742222	0.8311593671346529
89.846666	0.7972273869014547
89.951111	0.7571499319068075
90.055555	0.7069052340731694
90.16	0.6429047466710631
90.264444	0.5745824516098095
90.368888	0.5333439242106548
90.473333	0.4685110679261608
90.577777	0.46764252364549097
90.682222	0.4717868633542205
90.786666	0.49403719548661207
90.891111	0.5438935478676993
90.995555	0.6120119779153514
91.1	0.6790601130518106
91.204444	0.7364034123754913
91.308888	0.7845080884683855
91.413333	0.8253461792187952
91.517777	0.8598997492943085
91.622222	0.8883729432547598
91.726666	0.9109603164204874
91.831111	0.9281144901609648
91.935555	0.9405615835211507
92.04	0.9490834736945851
92.144444	0.9545131597711668
92.248888	0.9576449274379796
92.353333	0.9591427105206404
92.457777	0.9595673232281237
92.562222	0.9594850918032602
92.666666	0.9593415352091021
92.771111	0.9596411817762025
92.875555	0.9609650664068802
92.98	0.9641342470039664
93.084444	0.9703362360489245
93.188888	0.9805431461911752
93.293333	0.9921153368218992
93.397777	0.9964148825240041
93.502222	0.9901194331802596
93.606666	0.9790072904633353
93.711111	0.9671274164685869
93.815555	0.9551914299055339
93.92	0.9430640400545974
94.024444	0.930797981421737
94.128888	0.9186418685472355
94.233333	0.9068385368669102
94.337777	0.8949238562886597
94.442222	0.8798241780566775
94.546666	0.8536641915545916
94.651111	0.8114420772665442
94.755555	0.7570032314903627
94.86	0.6996192329545852
94.964444	0.6525913747961534
95.068888	0.6213001890529339
95.173333	0.6033447292071403
95.277777	0.5951820788776574
95.382222	0.5929761251477894
95.486666	0.5937098926238977
95.591111	0.5957780830339634
95.695555	0.5985313615978769
95.8	0.6015735234196606
95.904444	0.6048084193713661
96.008888	0.6083343165604015
96.113333	0.6121240295259518
96.217777	0.6160150181652322
96.322222	0.6202416729543272
96.426666	0.6246596793159012
96.531111	0.629380709172874
96.635555	0.6342773055291486
96.74	0.6394631785549562
96.844444	0.6450099803613207
96.948888	0.6506418897506964
97.053333	0.6566408621684974
97.157777	0.6628893249417962
97.262222	0.6693663646410827
97.366666	0.6761026146253776
97.471111	0.6832320968558643
97.575555	0.6906005299537121
97.68	0.6983621612411581
97.784444	0.706274157586064
97.888888	0.7145671270111645
97.993333	0.7231480277479325
98.097777	0.7320520481939214
98.202222	0.7411954500527433
98.306666	0.750546505878536
98.411111	0.76005475568458
98.515555	0.7696492346221581
98.62	0.7793150260625772
98.724444	0.7889057797833431
98.828888	0.7983470010746588
98.933333	0.8074821642027994
99.037777	0.8161951478270968
99.142222	0.8245613787353965
99.246666	0.8322456589166534
99.351111	0.8393364260691047
99.455555	0.8457151547691072
99.56	0.8512862396575249
99.664444	0.8560317763640104
99.768888	0.8599390408040646
99.873333	0.863047862332492
99.977777	0.8652679978300318
100.082222	0.8666209356659188
100.186666	0.8671759341086408
100.291111	0.8668968674657709
100.395555	0.8657477913543681
100.5	0.8638423634304069
100.604444	0.8610987204866257
100.708888	0.8576060816728818
100.813333	0.8533081583493763
100.917777	0.8482742321360239
101.022222	0.8424713879597232
101.126666	0.835919939448623
101.231111	0.8286647262480591
101.335555	0.8207480857133671
101.44	0.8121857918393789
101.544444	0.8030942701910768
101.648888	0.7934353123556892
101.753333	0.7833909922991382
101.857777	0.7729718523045213
